Wavelength [nm],epsilon [L mol^-1 cm^-1]
1.053568274855634570e+02,1.891142240655401849e+02
1.054464316581077270e+02,1.919138203473818010e+02
1.055361883740075655e+02,1.947920099615257072e+02
1.056260980231326272e+02,1.977521058878095346e+02
1.057161609966822766e+02,2.007976071119188077e+02
1.058063776871912864e+02,2.039322116201917368e+02
1.058967484885354651e+02,2.071598304776114787e+02
1.059872737959374547e+02,2.104846030936684542e+02
1.060779540059724582e+02,2.139109137922584409e+02
1.061687895165740514e+02,2.174434098146682572e+02
1.062597807270399954e+02,2.210870208991777588e+02
1.063509280380380773e+02,2.248469805970981952e+02
1.064422318516120214e+02,2.287288495034099469e+02
1.065336925711873448e+02,2.327385406008529856e+02
1.066253106015773824e+02,2.368823469396782571e+02
1.067170863489891559e+02,2.411669719016702800e+02
1.068090202210294706e+02,2.455995623269340626e+02
1.069011126267108978e+02,2.501877448157930814e+02
1.069933639764578572e+02,2.549396655565583387e+02
1.070857746821127279e+02,2.598640340735580594e+02
1.071783451569419157e+02,2.649701713394252351e+02
1.072710758156421065e+02,2.702680627521312431e+02
1.073639670743463910e+02,2.757684165416279711e+02
1.074570193506304889e+02,2.814827282444259708e+02
1.075502330635190589e+02,2.874233519683490385e+02
1.076436086334919366e+02,2.936035792656535932e+02
1.077371464824904876e+02,3.000377265425170208e+02
1.078308470339239307e+02,3.067412320586946635e+02
1.079247107126757754e+02,3.137307637153559767e+02
1.080187379451102032e+02,3.210243389945400736e+02
1.081129291590785328e+02,3.286414586035413095e+02
1.082072847839257150e+02,3.366032555955239900e+02
1.083018052504968409e+02,3.449326619879619784e+02
1.083964909911437502e+02,3.536545951878503615e+02
1.084913424397315538e+02,3.627961668623536298e+02
1.085863600316452846e+02,3.723869172715477021e+02
1.086815442037966051e+02,3.824590785126142123e+02
1.087768953946304293e+02,3.930478706191487390e+02
1.088724140441317303e+02,4.041918350222427989e+02
1.089681005938322187e+02,4.159332105186731496e+02
1.090639554868172496e+02,4.283183576120693488e+02
1.091599791677325726e+02,4.413982378998096578e+02
1.092561720827912666e+02,4.552289560728046354e+02
1.093525346797805895e+02,4.698723730729086583e+02
1.094490674080690269e+02,4.853967999999866834e+02
1.095457707186131557e+02,5.018777834499851451e+02
1.096426450639647641e+02,5.193989940470569309e+02
1.097396908982778427e+02,5.380532309240986706e+02
1.098369086773157619e+02,5.579435556745424947e+02
1.099342988584582912e+02,5.791845696380870550e+02
1.100318619007089040e+02,6.019038479805781208e+02
1.101295982647018548e+02,6.262435424125977761e+02
1.102275084127095539e+02,6.523621608641465173e+02
1.103255928086497875e+02,6.804365259690100629e+02
1.104238519180930069e+02,7.106639033216413281e+02
1.105222862082698043e+02,7.432642730058429379e+02
1.106208961480782307e+02,7.784826908015180607e+02
1.107196822080912568e+02,8.165916444536986774e+02
1.108186448605643051e+02,8.578932494853104345e+02
1.109177845794426958e+02,9.027210401867229166e+02
1.110171018403692926e+02,9.514409840151847675e+02
1.111165971206920489e+02,1.004451168349257387e+03
1.112162708994716951e+02,1.062179361777769373e+03
1.113161236574893991e+02,1.125077321987000687e+03
1.114161558772545533e+02,1.193610297625218209e+03
1.115163680430124344e+02,1.268239656044037019e+03
1.116167606407521333e+02,1.349396000668531087e+03
1.117173341582143422e+02,1.437439626311855136e+03
1.118180890848993130e+02,1.532604920661337019e+03
1.119190259120747015e+02,1.634925759677988935e+03
1.120201451327836679e+02,1.744140707513472307e+03
1.121214472418528203e+02,1.859580793228094763e+03
1.122229327359003008e+02,1.980049710669237129e+03
1.123246021133439427e+02,2.103716867784472470e+03
1.124264558744093989e+02,2.228056606279688822e+03
1.125284945211383274e+02,2.349877952160932182e+03
1.126307185573966763e+02,2.465490515267758383e+03
1.127331284888829686e+02,2.571033694150020892e+03
1.128357248231366157e+02,2.662952306847399541e+03
1.129385080695463301e+02,2.738539559011611345e+03
1.130414787393585669e+02,2.796413600020841841e+03
1.131446373456859362e+02,2.836781854377391483e+03
1.132479844035158010e+02,2.861398336112059951e+03
1.133515204297188177e+02,2.873217772581425379e+03
1.134552459430575482e+02,2.875849512800299181e+03
1.135591614641950997e+02,2.872966791004671450e+03
1.136632675157039074e+02,2.867816972337744573e+03
1.137675646220744028e+02,2.862924551797997992e+03
1.138720533097239240e+02,2.860012588849159329e+03
1.139767341070054840e+02,2.860112359679186739e+03
1.140816075442166948e+02,2.863792747601075462e+03
1.141866741536087773e+02,2.871420823945687516e+03
1.142919344693954997e+02,2.883365170271235911e+03
1.143973890277622729e+02,2.900076462921614166e+03
1.145030383668752307e+02,2.922021919988307673e+03
1.146088830268903820e+02,2.949497759377654802e+03
1.147149235499628475e+02,2.982379929040982461e+03
1.148211604802560828e+02,3.019888784637647859e+03
1.149275943639512150e+02,3.060440479452067848e+03
1.150342257492563789e+02,3.101644137981589211e+03
1.151410551864161249e+02,3.140482620107516595e+03
1.152480832277209402e+02,3.173681898892031313e+03
1.153553104275166703e+02,3.198225722559680435e+03
1.154627373422141829e+02,3.211915787908012589e+03
1.155703645302989173e+02,3.213837195455213077e+03
1.156781925523406471e+02,3.204594082976755089e+03
1.157862219710031155e+02,3.186242360177727733e+03
1.158944533510538832e+02,3.161942167800230436e+03
1.160028872593741625e+02,3.135435236490260650e+03
1.161115242649687076e+02,3.110483681114550564e+03
1.162203649389757771e+02,3.090382446508011526e+03
1.163294098546771238e+02,3.077603342449352567e+03
1.164386595875080559e+02,3.073577299081443016e+03
1.165481147150676122e+02,3.078593298811631939e+03
1.166577758171286519e+02,3.091789786713014564e+03
1.167676434756481854e+02,3.111227696096661020e+03
1.168777182747776067e+02,3.134049835049929698e+03
1.169880008008730670e+02,3.156736797540449061e+03
1.170984916425058913e+02,3.175457595055768252e+03
1.172091913904730234e+02,3.186485756413561830e+03
1.173201006378075988e+02,3.186621078510460393e+03
1.174312199797894891e+02,3.173541021082027783e+03
1.175425500139559887e+02,3.146015088713759724e+03
1.176540913401125152e+02,3.103946875692687627e+03
1.177658445603433393e+02,3.048247437835301753e+03
1.178778102790225120e+02,2.980577510007303317e+03
1.179899891028246373e+02,2.903019883814786226e+03
1.181023816407359703e+02,2.817755083700475552e+03
1.182149885040652890e+02,2.726809058288442429e+03
1.183278103064550919e+02,2.631917769155518727e+03
1.184408476638927112e+02,2.534515322944610489e+03
1.185541011947214685e+02,2.435813422792872643e+03
1.186675715196520571e+02,2.336915876177004066e+03
1.187812592617737693e+02,2.238911527061891320e+03
1.188951650465659924e+02,2.142910142833114151e+03
1.190092895019096062e+02,2.050016656298436828e+03
1.191236332580985930e+02,1.961264700115436199e+03
1.192381969478515771e+02,1.877540670990880244e+03
1.193529812063235198e+02,1.799524430548358851e+03
1.194679866711174725e+02,1.727659450916688911e+03
1.195832139822963569e+02,1.662152253932086296e+03
1.196986637823948456e+02,1.602993348164960253e+03
1.198143367164313418e+02,1.549990141462667452e+03
1.199302334319199304e+02,1.502804525003161871e+03
1.200463545788824860e+02,1.460991478346762506e+03
1.201627008098608655e+02,1.424038161110991268e+03
1.202792727799290446e+02,1.391404329919960674e+03
1.203960711467055091e+02,1.362564108012760698e+03
1.205130965703655477e+02,1.337046596044242960e+03
1.206303497136537288e+02,1.314469998775651675e+03
1.207478312418964066e+02,1.294562849958583229e+03
1.208655418230142828e+02,1.277167898635109395e+03
1.209834821275350976e+02,1.262228798788840322e+03
1.211016528286063192e+02,1.249764658822207821e+03
1.212200546020080054e+02,1.239840244057628297e+03
1.213386881261656356e+02,1.232539158252021480e+03
1.214575540821631137e+02,1.227944542646097261e+03
1.215766531537557427e+02,1.226128510500217772e+03
1.216959860273834124e+02,1.227149091018154877e+03
1.218155533921837019e+02,1.231052358347664722e+03
1.219353559400052092e+02,1.237877405471719612e+03
1.220553943654208808e+02,1.247662370240560904e+03
1.221756693657414274e+02,1.260450398113709298e+03
1.222961816410288094e+02,1.276294996099235959e+03
1.224169318941098510e+02,1.295264620633367031e+03
1.225379208305899112e+02,1.317446564323407529e+03
1.226591491588665548e+02,1.342950309527200716e+03
1.227806175901434784e+02,1.371910547290403429e+03
1.229023268384443384e+02,1.404490052971061687e+03
1.230242776206268047e+02,1.440882586851632368e+03
1.231464706563965734e+02,1.481315961086918378e+03
1.232689066683215486e+02,1.526055388755748027e+03
1.233915863818461389e+02,1.575407207864782777e+03
1.235145105253054822e+02,1.629723051845860937e+03
1.236376798299399553e+02,1.689404515876437245e+03
1.237610950299096118e+02,1.754908341544825362e+03
1.238847568623088051e+02,1.826752106001016273e+03
1.240086660671808261e+02,1.905520349096563677e+03
1.241328233875326958e+02,1.991870994048515968e+03
1.242572295693500308e+02,2.086541801459791259e+03
1.243818853616119213e+02,2.190356426192443450e+03
1.245067915163060519e+02,2.304229398906157257e+03
1.246319487884437081e+02,2.429168999277967487e+03
1.247573579360751097e+02,2.566276488613863421e+03
1.248830197203046453e+02,2.716739481966412313e+03
1.250089349053062762e+02,2.881816319175120043e+03
1.251351042583390125e+02,3.062807108156611775e+03
1.252615285497625592e+02,3.261005671006794728e+03
1.253882085530529338e+02,3.477625027284638236e+03
1.255151450448182686e+02,3.713687588248093562e+03
1.256423388048146563e+02,3.969870524874963394e+03
1.257697906159621510e+02,4.246297930936231751e+03
1.258975012643607982e+02,4.542276221231373711e+03
1.260254715393068494e+02,4.855980135634301405e+03
1.261537022333089482e+02,5.184116353140278079e+03
1.262821941421045295e+02,5.521621257651231645e+03
1.264109480646763046e+02,5.861485695648153524e+03
1.265399648032687594e+02,6.194831204975656874e+03
1.266692451634048950e+02,6.511367130877008094e+03
1.267987899539029257e+02,6.800308168524752546e+03
1.269285999868931611e+02,7.051709716097635464e+03
1.270586760778350026e+02,7.258002980245632898e+03
1.271890190455339962e+02,7.415353725593279705e+03
1.273196297121590277e+02,7.524426657793665072e+03
1.274505089032596032e+02,7.590272112441412901e+03
1.275816574477832148e+02,7.621323338882779353e+03
1.277130761780929191e+02,7.627771050802208265e+03
1.278447659299848311e+02,7.619734527593807798e+03
1.279767275427059730e+02,7.605630886043806640e+03
1.281089618589720089e+02,7.591012784966051186e+03
1.282414697249851656e+02,7.577995152223260447e+03
1.283742519904524215e+02,7.565286494007354122e+03
1.285073095086034982e+02,7.548783210344109648e+03
1.286406431362092633e+02,7.522639086207153014e+03
1.287742537336000339e+02,7.480650488531840892e+03
1.289081421646841648e+02,7.417701918773385842e+03
1.290423092969665504e+02,7.330945829688309459e+03
1.291767560015674974e+02,7.220413538516954759e+03
1.293114831532414826e+02,7.088900917917009792e+03
1.294464916303961672e+02,6.941195736955356551e+03
1.295817823151114681e+02,6.782910062221677435e+03
1.297173560931587701e+02,6.619264386916822332e+03
1.298532138540202823e+02,6.454125573989074837e+03
1.299893564909084489e+02,6.289478718839609428e+03
1.301257849007855327e+02,6.125378786909051996e+03
1.302624999843833962e+02,5.960320422556769699e+03
1.303995026462231408e+02,5.791892700828922898e+03
1.305367937946352868e+02,5.617547967885446269e+03
1.306743743417796679e+02,5.435311790389796442e+03
1.308122452036656966e+02,5.244295832682075343e+03
1.309504073001726852e+02,5.044937979149501189e+03
1.310888615550703378e+02,4.838963982086087526e+03
1.312276088960393281e+02,4.629122716979625693e+03
1.313666502546919332e+02,4.418782920439636655e+03
1.315059865665930090e+02,4.211491152073844205e+03
1.316456187712808799e+02,4.010579697380372636e+03
1.317855478122885415e+02,3.818883688844703101e+03
1.319257746371648352e+02,3.638588964713008409e+03
1.320663001974958775e+02,3.471198851152284988e+03
1.322071254489265471e+02,3.317588032216283864e+03
1.323482513511822276e+02,3.178106435066356426e+03
1.324896788680904933e+02,3.052701338194352957e+03
1.326314089676032211e+02,2.941035762058982982e+03
1.327734426218184183e+02,2.842591040256652832e+03
1.329157808070027329e+02,2.756749002100585585e+03
1.330584245036136224e+02,2.682853945612090683e+03
1.332013746963218921e+02,2.620257014678532869e+03
1.333446323740344894e+02,2.568346462547660849e+03
1.334881985299171276e+02,2.526567254788892569e+03
1.336320741614173357e+02,2.494433013598474645e+03
1.337762602702875654e+02,2.471532720732077905e+03
1.339207578626083830e+02,2.457534030087813335e+03
1.340655679488118892e+02,2.452184558239724083e+03
1.342106915437053658e+02,2.455312139154223587e+03
1.343561296664947804e+02,2.466824741704720964e+03
1.345018833408088597e+02,2.486710540147752454e+03
1.346479535947229920e+02,2.515038481408032112e+03
1.347943414607833859e+02,2.551959593329467225e+03
1.349410479760314274e+02,2.597709212058971389e+03
1.350880741820282367e+02,2.652610264087163159e+03
1.352354211248791671e+02,2.717077710907171422e+03
1.353830898552587598e+02,2.791624244924378218e+03
1.355310814284356695e+02,2.876867308010431771e+03
1.356793969042977608e+02,2.973537482739854113e+03
1.358280373473774034e+02,3.082488273784475496e+03
1.359770038268770804e+02,3.204707244226547118e+03
1.361262974166948254e+02,3.341328386708380094e+03
1.362759191954502000e+02,3.493645475856076700e+03
1.364258702465101294e+02,3.663125943351641581e+03
1.365761516580151920e+02,3.851424508626859279e+03
1.367267645229057962e+02,4.060395343066236819e+03
1.368777099389488114e+02,4.292100885993506381e+03
1.370289890087641140e+02,4.548814492048379179e+03
1.371806028398515025e+02,4.833012780960483724e+03
1.373325525446177835e+02,5.147351781481586841e+03
1.374848392404038009e+02,5.494618620181605365e+03
1.376374640495120332e+02,5.877647565017757188e+03
1.377904280992340205e+02,6.299185794037426604e+03
1.379437325218781325e+02,6.761690712664219973e+03
1.380973784547976209e+02,7.267037911409327535e+03
1.382513670404185575e+02,7.816118726020294162e+03
1.384056994262683133e+02,8.408311839376417993e+03
1.385603767650040368e+02,9.040828817852359862e+03
1.387154002144412459e+02,9.707964053704938124e+03
1.388707709375828188e+02,1.040032905882396699e+04
1.390264901026480686e+02,1.110421721377876020e+04
1.391825588831019616e+02,1.180131295233046330e+04
1.393389784576846750e+02,1.246899578025499795e+04
1.394957500104411849e+02,1.308144732614838176e+04
1.396528747307512219e+02,1.361161138760456197e+04
1.398103538133593133e+02,1.403379673978549908e+04
1.399681884584050522e+02,1.432644676462370080e+04
1.401263798714536222e+02,1.447447893025803933e+04
1.402849292635264646e+02,1.447072103951602003e+04
1.404438378511321446e+02,1.431628535589660351e+04
1.406031068562976145e+02,1.402003215896800248e+04
1.407627375065993078e+02,1.359740503872279260e+04
1.409227310351948574e+02,1.306886511239633910e+04
1.410830886808548428e+02,1.245805484159712432e+04
1.412438116879946222e+02,1.178981480820921570e+04
1.414049013067066767e+02,1.108825266678684056e+04
1.415663587927929541e+02,1.037511798726492998e+04
1.417281854077974685e+02,9.668691473644797952e+03
1.418903824190392129e+02,8.983267042878427674e+03
1.420529510996452416e+02,8.329164265546223760e+03
1.422158927285839525e+02,7.713119422756724816e+03
1.423792085906986529e+02,7.138882534846906310e+03
1.425428999767412677e+02,6.607875682860127199e+03
1.427069681834064170e+02,6.119815399607332438e+03
1.428714145133656359e+02,5.673247301004634210e+03
1.430362402753018785e+02,5.265974817021604395e+03
1.432014467839441636e+02,4.895384673837050286e+03
1.433670353601025340e+02,4.558682313894292747e+03
1.435330073307033842e+02,4.253054150644114998e+03
1.436993640288247036e+02,3.975773330991251441e+03
1.438661067937319729e+02,3.724263545091723699e+03
1.440332369709139471e+02,3.496132634296128799e+03
1.442007559121189217e+02,3.289184998553922924e+03
1.443686649753911411e+02,3.101419431544114559e+03
1.445369655251075187e+02,2.931017149096189769e+03
1.447056589320146429e+02,2.776323457815488382e+03
1.448747465732658668e+02,2.635825724372358309e+03
1.450442298324588819e+02,2.508130003133624996e+03
1.452141100996734338e+02,2.391938741287157427e+03
1.453843887715093217e+02,2.286032154423754946e+03
1.455550672511246262e+02,2.189255730614807362e+03
1.457261469482743621e+02,2.100515375831203073e+03
1.458976292793491609e+02,2.018779686682796410e+03
1.460695156674144926e+02,1.943086155449619582e+03
1.462418075422499442e+02,1.872546149181974215e+03
1.464145063403888116e+02,1.806344047062320215e+03
1.465876135051581741e+02,1.743729784115770371e+03
1.467611304867189972e+02,1.684009774415088486e+03
1.469350587421066621e+02,1.626545248456307945e+03
1.471093997352717508e+02,1.570765972730318936e+03
1.472841549371210306e+02,1.516200381341577668e+03
1.474593258255590342e+02,1.462513473382861321e+03
1.476349138855294711e+02,1.409536993923782575e+03
1.478109206090573480e+02,1.357277003336892676e+03
1.479873474952912318e+02,1.305892225756973403e+03
1.481641960505456836e+02,1.255648007320079614e+03
1.483414677883442607e+02,1.206859062853383193e+03
1.485191642294626888e+02,1.159835797909896655e+03
1.486972869019721770e+02,1.114844657859929384e+03
1.488758373412834999e+02,1.072086278670336469e+03
1.490548170901908520e+02,1.031689647820753862e+03
1.492342276989164702e+02,9.937175976560772597e+02
1.494140707251552840e+02,9.581785267838104119e+02
1.495943477341200492e+02,9.250402482506194701e+02
1.497750602985867090e+02,8.942433056992306319e+02
1.499562099989401531e+02,8.657123816737043853e+02
1.501377984232204028e+02,8.393653226844262463e+02
1.503198271671687394e+02,8.151198272115093459e+02
1.505022978342747422e+02,7.928980790878870266e+02
1.506852120358232412e+02,7.726296626792238840e+02
1.508685713909416677e+02,7.542530478346029668e+02
1.510523775266479731e+02,7.377158330555025714e+02
1.512366320778986903e+02,7.229738134110225474e+02
1.514213366876374209e+02,7.099888101899307458e+02
1.516064930068436070e+02,6.987250715372579180e+02
1.517921026945818426e+02,6.891439396170646887e+02
1.519781674180512994e+02,6.811964039211926547e+02
1.521646888526357486e+02,6.748131671194657883e+02
1.523516686819537540e+02,6.698920145947881792e+02
1.525391085979094044e+02,6.662827100303470615e+02
1.527270103007433590e+02,6.637704619652927249e+02
1.529153754990841207e+02,6.620603024944073240e+02
1.531042059100000188e+02,6.607664056751327735e+02
1.532935032590511923e+02,6.594120184462115049e+02
1.534832692803423129e+02,6.574463541748682474e+02
1.536735057165754199e+02,6.542831961835457832e+02
1.538642143191033824e+02,6.493610227642377595e+02
1.540553968479835021e+02,6.422165758337202988e+02
1.542470550720317704e+02,6.325557315397129514e+02
1.544391907688773813e+02,6.203018826306912388e+02
1.546318057250176992e+02,6.056064278148651283e+02
1.548249017358735955e+02,5.888177238945147565e+02
1.550184806058452693e+02,5.704184956485182738e+02
1.552125441483684938e+02,5.509503884119300210e+02
1.554070941859711183e+02,5.309446501213008105e+02
1.556021325503302535e+02,5.108715178576179596e+02
1.557976610823296255e+02,4.911123184300062121e+02
1.559936816321176707e+02,4.719515637367488807e+02
1.561901960591657428e+02,4.535830332492454886e+02
1.563872062323268892e+02,4.361235166150580653e+02
1.565847140298952809e+02,4.196292197004163427e+02
1.567827213396657271e+02,4.041116274673773887e+02
1.569812300589938445e+02,3.895511760702777906e+02
1.571802420948567374e+02,3.759081728659257919e+02
1.573797593639140473e+02,3.631310365125049202e+02
1.575797837925694012e+02,3.511622291165899696e+02
1.577803173170324840e+02,3.399423445635641201e+02
1.579813618833815383e+02,3.294127987373455539e+02
1.581829194476262330e+02,3.195175010977814054e+02
1.583849919757711575e+02,3.102038085886498493e+02
1.585875814438796851e+02,3.014229895319159596e+02
1.587906898381385190e+02,2.931303638283723103e+02
1.589943191549224650e+02,2.852852376690672713e+02
1.591984714008598587e+02,2.778507147821239869e+02
